# Matter power spectrum P(k) at redshift z=0
# for k=1.06564e-05 to 11.2112 h/Mpc,
# number of wavenumbers equal to 617
#    1:k (h/Mpc)              2:P (Mpc/h)^3        
       1.065635475657e-05       4.893856147832e+01 
       2.353772313445e-05       1.048796169276e+02 
       3.646494447829e-05       1.597899827255e+02 
       4.947280444396e-05       2.142814188745e+02 
       6.259666892824e-05       2.686955050171e+02 
       7.587279943743e-05       3.232890408717e+02 
       8.933867860519e-05       3.782838050992e+02 
       1.030333501867e-04       4.338773633066e+02 
       1.169977778898e-04       4.902652336281e+02 
       1.312752274370e-04       5.476368102534e+02 
       1.459116762572e-04       6.061880050440e+02 
       1.609562551465e-04       6.661198355091e+02 
       1.764617260538e-04       7.276386969480e+02 
       1.924849997752e-04       7.909748088642e+02 
       2.090876966757e-04       8.563558302873e+02 
       2.263367524699e-04       9.240402245505e+02 
       2.443050694164e-04       9.942965874810e+02 
       2.630722107888e-04       1.067419250647e+03 
       2.827251329107e-04       1.143724969628e+03 
       3.033589440499e-04       1.223558112537e+03 
       3.250776726784e-04       1.307289647251e+03 
       3.479950186158e-04       1.395322851826e+03 
       3.722350490077e-04       1.488091905660e+03 
       3.979327866989e-04       1.586065525203e+03 
       4.252346213660e-04       1.689745080180e+03 
       4.542984543301e-04       1.799665093817e+03 
       4.852934676364e-04       1.916388338235e+03 
       5.183993893584e-04       2.040504512751e+03 
       5.538051142887e-04       2.172617489002e+03 
       5.917065381214e-04       2.313342318783e+03 
       6.323034813343e-04       2.463293138553e+03 
       6.757956241623e-04       2.623050237456e+03 
       7.223774527260e-04       2.793145552537e+03 
       7.722323301677e-04       2.974067560649e+03 
       8.255259486910e-04       3.166182652136e+03 
       8.823995702839e-04       3.369768509226e+03 
       9.429635955766e-04       3.584953687992e+03 
       1.007292074861e-03       3.811715343617e+03 
       1.075418759350e-03       4.049868633679e+03 
       1.147335167518e-03       4.299060894969e+03 
       1.222990921393e-03       4.558787732818e+03 
       1.302296330596e-03       4.828398100550e+03 
       1.385126926546e-03       5.107107039441e+03 
       1.471329434471e-03       5.394047628052e+03 
       1.560728556956e-03       5.688318876885e+03 
       1.653133939765e-03       5.988974964249e+03 
       1.748346780249e-03       6.295056583153e+03 
       1.846165684618e-03       6.605627797325e+03 
       1.946391543299e-03       6.919785893292e+03 
       2.048831341710e-03       7.236672727616e+03 
       2.153300938591e-03       7.555491144343e+03 
       2.259626919500e-03       7.875506432997e+03 
       2.367647672533e-03       8.196044658463e+03 
       2.477213844734e-03       8.516498159559e+03 
       2.588188330123e-03       8.836319930154e+03 
       2.700445922098e-03       9.155023877470e+03 
       2.813872740256e-03       9.472179418574e+03 
       2.928365518611e-03       9.787403496185e+03 
       3.043830821139e-03       1.010036188779e+04 
       3.160184232656e-03       1.041076299435e+04 
       3.277349558551e-03       1.071835171922e+04 
       3.395258055587e-03       1.102290651377e+04 
       3.513847707517e-03       1.132423771357e+04 
       3.633062553038e-03       1.162218057401e+04 
       3.752852069268e-03       1.191659508572e+04 
       3.873170610926e-03       1.220736251236e+04 
       3.993976903421e-03       1.249437944996e+04 
       4.115233586898e-03       1.277756543197e+04 
       4.236906807592e-03       1.305684675776e+04 
       4.358965852548e-03       1.333216858471e+04 
       4.481382823721e-03       1.360348409511e+04 
       4.604132347582e-03       1.387075970239e+04 
       4.727191316558e-03       1.413396699142e+04 
       4.850538658910e-03       1.439309893336e+04 
       4.974155133912e-03       1.464815423395e+04 
       5.098023149532e-03       1.489909109800e+04 
       5.222126600049e-03       1.514592944251e+04 
       5.346450721351e-03       1.538867516455e+04 
       5.470981961890e-03       1.562741048339e+04 
       5.595707867483e-03       1.586200103350e+04 
       5.720616978399e-03       1.609254694427e+04 
       5.845698737301e-03       1.631898226966e+04 
       5.970943406827e-03       1.654149550315e+04 
       6.096341995698e-03       1.675993277764e+04 
       6.221886192410e-03       1.697443756154e+04 
       6.347568305648e-03       1.718508042788e+04 
       6.473381210675e-03       1.739174258690e+04 
       6.599318301047e-03       1.759459128908e+04 
       6.725373445066e-03       1.779362143695e+04 
       6.851540946447e-03       1.798880030990e+04 
       6.977815508772e-03       1.818033709565e+04 
       7.104192203300e-03       1.836791352492e+04 
       7.230666439802e-03       1.855194555822e+04 
       7.357233940093e-03       1.873226805332e+04 
       7.483890713986e-03       1.890899965799e+04 
       7.610633037428e-03       1.908206398308e+04 
       7.737457432582e-03       1.925147072976e+04 
       7.864360649681e-03       1.941748976200e+04 
       7.991339650460e-03       1.958014082535e+04 
       8.118391593025e-03       1.973913073415e+04 
       8.245513818012e-03       1.989463411844e+04 
       8.372703835920e-03       2.004701994248e+04 
       8.499959315498e-03       2.019600101605e+04 
       8.627278073098e-03       2.034167133552e+04 
       8.754658062897e-03       2.048386135965e+04 
       8.882097367905e-03       2.062303715029e+04 
       9.009594191708e-03       2.075890382813e+04 
       9.137146850850e-03       2.089149431208e+04 
       9.264753767823e-03       2.102116633472e+04 
       9.392413464604e-03       2.114777837370e+04 
       9.520124556681e-03       2.127118566417e+04 
       9.647885747545e-03       2.139155841027e+04 
       9.775695823590e-03       2.150898351556e+04 
       9.903553649409e-03       2.162336940356e+04 
       1.003145816342e-02       2.173489847754e+04 
       1.015940837385e-02       2.184374285019e+04 
       1.028740335495e-02       2.194934518468e+04 
       1.041544224357e-02       2.205247546222e+04 
       1.054352423591e-02       2.215253809854e+04 
       1.067164858454e-02       2.225000882443e+04 
       1.079981459563e-02       2.234457058696e+04 
       1.092802162636e-02       2.243667058171e+04 
       1.105626908254e-02       2.252586650029e+04 
       1.118455641637e-02       2.261259733180e+04 
       1.131288312438e-02       2.269665638017e+04 
       1.144124874548e-02       2.277811531756e+04 
       1.156965285921e-02       2.285709523553e+04 
       1.169809508406e-02       2.293372500963e+04 
       1.182657507588e-02       2.300745839097e+04 
       1.195509252651e-02       2.307911753614e+04 
       1.208364716237e-02       2.314804633543e+04 
       1.221223874328e-02       2.321472112907e+04 
       1.234086706122e-02       2.327901909321e+04 
       1.246953193935e-02       2.334111425808e+04 
       1.259823323091e-02       2.340072856687e+04 
       1.272697081840e-02       2.345797851659e+04 
       1.285574461261e-02       2.351322747554e+04 
       1.298455455189e-02       2.356600031490e+04 
       1.311340060142e-02       2.361659538990e+04 
       1.324228275248e-02       2.366513314362e+04 
       1.337120102184e-02       2.371141693974e+04 
       1.350015545121e-02       2.375571429854e+04 
       1.362914610666e-02       2.379774056001e+04 
       1.375817307815e-02       2.383783313952e+04 
       1.388723647912e-02       2.387585862889e+04 
       1.401633644602e-02       2.391197096525e+04 
       1.414547313797e-02       2.394570365538e+04 
       1.427464673642e-02       2.397768751506e+04 
       1.440385744489e-02       2.400791275900e+04 
       1.453310548863e-02       2.403600891947e+04 
       1.466239111443e-02       2.406205964611e+04 
       1.479171459041e-02       2.408642334078e+04 
       1.492107620584e-02       2.410889623471e+04 
       1.505047627096e-02       2.412957285281e+04 
       1.517991511690e-02       2.414859474840e+04 
       1.530939309554e-02       2.416567600198e+04 
       1.543891057945e-02       2.418097669120e+04 
       1.556846796184e-02       2.419447948391e+04 
       1.569806565651e-02       2.420647211514e+04 
       1.582770409787e-02       2.421652490682e+04 
       1.595738374092e-02       2.422507958004e+04 
       1.608710506131e-02       2.423199787146e+04 
       1.621686855535e-02       2.423727682923e+04 
       1.634667474013e-02       2.424099603570e+04 
       1.647652415360e-02       2.424316342256e+04 
       1.660641735462e-02       2.424354890586e+04 
       1.673635492319e-02       2.424254844594e+04 
       1.686633746050e-02       2.424007483724e+04 
       1.699636558914e-02       2.423600210148e+04 
       1.712643995327e-02       2.423062228998e+04 
       1.725656121882e-02       2.422364443078e+04 
       1.738673007370e-02       2.421529528077e+04 
       1.751694722804e-02       2.420551792785e+04 
       1.764721341440e-02       2.419451273054e+04 
       1.777752938810e-02       2.418194150985e+04 
       1.790789592744e-02       2.416796972547e+04 
       1.803831383403e-02       2.415262801441e+04 
       1.816878393309e-02       2.413628882439e+04 
       1.829930707379e-02       2.411835361922e+04 
       1.842988412959e-02       2.409934303612e+04 
       1.856051599861e-02       2.407894791823e+04 
       1.869120360402e-02       2.405748260065e+04 
       1.882194789440e-02       2.403449539739e+04 
       1.895274984421e-02       2.401058346427e+04 
       1.908361045418e-02       2.398550943545e+04 
       1.921453075176e-02       2.395903187482e+04 
       1.934551179164e-02       2.393164124745e+04 
       1.947655465616e-02       2.390299128660e+04 
       1.960766045588e-02       2.387332467805e+04 
       1.973883033005e-02       2.384268921419e+04 
       1.987006544721e-02       2.381081934401e+04 
       2.000136700568e-02       2.377793773538e+04 
       2.013273623422e-02       2.374401543113e+04 
       2.026417439255e-02       2.370904189307e+04 
       2.039568277204e-02       2.367312409016e+04 
       2.052726269632e-02       2.363626783768e+04 
       2.065891552191e-02       2.359830312622e+04 
       2.079064263900e-02       2.355948936418e+04 
       2.092244547206e-02       2.351969548408e+04 
       2.105432548061e-02       2.347917414145e+04 
       2.118628416001e-02       2.343741203185e+04 
       2.131832304215e-02       2.339496543658e+04 
       2.145044369635e-02       2.335163071044e+04 
       2.158264773013e-02       2.330752294619e+04 
       2.171493679008e-02       2.326264293844e+04 
       2.184731256273e-02       2.321668782436e+04 
       2.197977677550e-02       2.317009159630e+04 
       2.211233119757e-02       2.312271250707e+04 
       2.224497764093e-02       2.307446527994e+04 
       2.237771796130e-02       2.302559926180e+04 
       2.251055405921e-02       2.297596973549e+04 
       2.264348788103e-02       2.292573704293e+04 
       2.277652142011e-02       2.287433129687e+04 
       2.290965671784e-02       2.282273543200e+04 
       2.304289586487e-02       2.277005470939e+04 
       2.317624100228e-02       2.271689008895e+04 
       2.330969432286e-02       2.266324254732e+04 
       2.344325807231e-02       2.260873077910e+04 
       2.357693455063e-02       2.255355125991e+04 
       2.371072611346e-02       2.249791043268e+04 
       2.384463517346e-02       2.244170701261e+04 
       2.397866420178e-02       2.238464717979e+04 
       2.411281572954e-02       2.232726249681e+04 
       2.424709234937e-02       2.226923179540e+04 
       2.438149671702e-02       2.221063726308e+04 
       2.451603155299e-02       2.215179586375e+04 
       2.465069964422e-02       2.209187592715e+04 
       2.478550384584e-02       2.203183670291e+04 
       2.492044708298e-02       2.197113680010e+04 
       2.505553235266e-02       2.191016556631e+04 
       2.519076272569e-02       2.184861900170e+04 
       2.532614134867e-02       2.178645960888e+04 
       2.546167144605e-02       2.172396003250e+04 
       2.559735632229e-02       2.166110236110e+04 
       2.573319936399e-02       2.159782751241e+04 
       2.586920404227e-02       2.153401421914e+04 
       2.600537391501e-02       2.147005010112e+04 
       2.614171262938e-02       2.140524967205e+04 
       2.627822392429e-02       2.134050904042e+04 
       2.641491163305e-02       2.127514612677e+04 
       2.655177968604e-02       2.120951170107e+04 
       2.668883211348e-02       2.114347001928e+04 
       2.682607304840e-02       2.107731341974e+04 
       2.696350672954e-02       2.101052923867e+04 
       2.710113750453e-02       2.094351036094e+04 
       2.723896983304e-02       2.087632279690e+04 
       2.737700829019e-02       2.080873532777e+04 
       2.751525756992e-02       2.074097226368e+04 
       2.765372248863e-02       2.067278454583e+04 
       2.779240798890e-02       2.060443448782e+04 
       2.793131914328e-02       2.053580323768e+04 
       2.807046115838e-02       2.046691162345e+04 
       2.820983937893e-02       2.039772933101e+04 
       2.834945929217e-02       2.032839895487e+04 
       2.848932653228e-02       2.025900580714e+04 
       2.862944688506e-02       2.018909310284e+04 
       2.876982629273e-02       2.011912307072e+04 
       2.891047085900e-02       2.004907504243e+04 
       2.905138685424e-02       1.997849604455e+04 
       2.919258072097e-02       1.990811991815e+04 
       2.933405907948e-02       1.983723068817e+04 
       2.947582873372e-02       1.976651241311e+04 
       2.961789667742e-02       1.969544130216e+04 
       2.976027010049e-02       1.962427952999e+04 
       2.990295639565e-02       1.955286758792e+04 
       3.004596316537e-02       1.948149081480e+04 
       3.018929822908e-02       1.940989847687e+04 
       3.033296963068e-02       1.933814705680e+04 
       3.047698564645e-02       1.926618815411e+04 
       3.062135479319e-02       1.919433319745e+04 
       3.076608583682e-02       1.912245805504e+04 
       3.091118780128e-02       1.905024922202e+04 
       3.105666997791e-02       1.897806777318e+04 
       3.120254193518e-02       1.890571220170e+04 
       3.134881352891e-02       1.883352334142e+04 
       3.149549491291e-02       1.876091156210e+04 
       3.164259655022e-02       1.868843650500e+04 
       3.179012922470e-02       1.861582639957e+04 
       3.193810405339e-02       1.854329669784e+04 
       3.208653249924e-02       1.847079581841e+04 
       3.223542638463e-02       1.839804320409e+04 
       3.238479790541e-02       1.832538105917e+04 
       3.253465964577e-02       1.825246318846e+04 
       3.268502459369e-02       1.817971347587e+04 
       3.283590615732e-02       1.810689531564e+04 
       3.298731818204e-02       1.803407675953e+04 
       3.313927496856e-02       1.796124069467e+04 
       3.329179129177e-02       1.788847744379e+04 
       3.344488242074e-02       1.781564645068e+04 
       3.359856413964e-02       1.774263564191e+04 
       3.375285276990e-02       1.766979745087e+04 
       3.390776519343e-02       1.759690682938e+04 
       3.406331887726e-02       1.752404573004e+04 
       3.421953189935e-02       1.745130913337e+04 
       3.437642297602e-02       1.737833153941e+04 
       3.453401149080e-02       1.730572196248e+04 
       3.469231752496e-02       1.723273696203e+04 
       3.485136188979e-02       1.715999676583e+04 
       3.501116616080e-02       1.708717522600e+04 
       3.517175271385e-02       1.701443833430e+04 
       3.533314476350e-02       1.694180487477e+04 
       3.549536640363e-02       1.686903223883e+04 
       3.565844265059e-02       1.679633381010e+04 
       3.582239948890e-02       1.672367085442e+04 
       3.598726391996e-02       1.665114292318e+04 
       3.615306401369e-02       1.657853233983e+04 
       3.631982896356e-02       1.650606544694e+04 
       3.648758914518e-02       1.643348113867e+04 
       3.665637617867e-02       1.636113944324e+04 
       3.682622299526e-02       1.628855191141e+04 
       3.699716390831e-02       1.621628335501e+04 
       3.716923468920e-02       1.614390327181e+04 
       3.734247264848e-02       1.607145205546e+04 
       3.751691672266e-02       1.599916167615e+04 
       3.769260756718e-02       1.592694964053e+04 
       3.786958765610e-02       1.585461199608e+04 
       3.804790138904e-02       1.578253341416e+04 
       3.822759520603e-02       1.571031034991e+04 
       3.840871771099e-02       1.563804237566e+04 
       3.859131980464e-02       1.556596428872e+04 
       3.877545482764e-02       1.549382866922e+04 
       3.896117871501e-02       1.542163941218e+04 
       3.914855016280e-02       1.534955541768e+04 
       3.933763080830e-02       1.527742283301e+04 
       3.952848542498e-02       1.520543459484e+04 
       3.972118213377e-02       1.513339333607e+04 
       3.991579263220e-02       1.506123763933e+04 
       4.011239244329e-02       1.498920279583e+04 
       4.031106118630e-02       1.491714024649e+04 
       4.051188287148e-02       1.484489273772e+04 
       4.071494622162e-02       1.477277782358e+04 
       4.092034502321e-02       1.470072371801e+04 
       4.112817851046e-02       1.462845070138e+04 
       4.133855178606e-02       1.455632445427e+04 
       4.155157628277e-02       1.448397600135e+04 
       4.176737027073e-02       1.441153154129e+04 
       4.198605941591e-02       1.433915297450e+04 
       4.220777739591e-02       1.426673496522e+04 
       4.243266658028e-02       1.419409100003e+04 
       4.266087878357e-02       1.412151325246e+04 
       4.289257610033e-02       1.404868880779e+04 
       4.312793183299e-02       1.397584281249e+04 
       4.336713152507e-02       1.390268438214e+04 
       4.361037411413e-02       1.382945012876e+04 
       4.385787322118e-02       1.375608915736e+04 
       4.410985859622e-02       1.368268731106e+04 
       4.436657774245e-02       1.360884906289e+04 
       4.462829774610e-02       1.353490229204e+04 
       4.489530734306e-02       1.346079317979e+04 
       4.516791925945e-02       1.338631587397e+04 
       4.544647286976e-02       1.331175037002e+04 
       4.573133722459e-02       1.323657650949e+04 
       4.602291450990e-02       1.316117338027e+04 
       4.632164401179e-02       1.308543726936e+04 
       4.662800667564e-02       1.300935471020e+04 
       4.694253036698e-02       1.293290092882e+04 
       4.726579596345e-02       1.285587454242e+04 
       4.759844443582e-02       1.277829462343e+04 
       4.794118511019e-02       1.270008041528e+04 
       4.829480534730e-02       1.262138648430e+04 
       4.866018192928e-02       1.254198675077e+04 
       4.903829451278e-02       1.246188640204e+04 
       4.943024159437e-02       1.238105914513e+04 
       4.983725954404e-02       1.229924005070e+04 
       5.026074540291e-02       1.221633623944e+04 
       5.070228431949e-02       1.213241981121e+04 
       5.116368272663e-02       1.204729373463e+04 
       5.164700865068e-02       1.196088734868e+04 
       5.215464091174e-02       1.187288822682e+04 
       5.268932943520e-02       1.178326946237e+04 
       5.325426946543e-02       1.169154092647e+04 
       5.385319315855e-02       1.159780812352e+04 
       5.449048281467e-02       1.150152912597e+04 
       5.517131081490e-02       1.140204333687e+04 
       5.590181195834e-02       1.129933657984e+04 
       5.668929390276e-02       1.119235333750e+04 
       5.754248986606e-02       1.108036196963e+04 
       5.847185279902e-02       1.096234187543e+04 
       5.948987842574e-02       1.083665840462e+04 
       6.061141980465e-02       1.070167395480e+04 
       6.185390893424e-02       1.055469368126e+04 
